<Actel_Data_File>
    <format name="NVM File" version="01.00.00"/>
    <header>
        <die>
            M2S025
        </die>
        <family>
            SmartFusion2
        </family>
        <module>
            
        </module>
        <package>
            256 VF
        </package>
        <version>
            12.900.10.16
        </version>
    </header>
    <nvm>
        <region name="deploy" address="0x000000" retrieveAddressFromFile="false" size="29488" format="HEX" type="Data Storage" wordSize="8" numberWords="29488" memFile="C:/Libero/Projects/board_deploy/polled_uart/Release/polled_uart.hex" memType="INTELHEX" memFileTimeStamp="1620533902" clientType="public" program="true">
            <fabric_accessible/>
            <mss_accessible/>
            00000120910100007f030000810300008303000085030000870300000000
            0000000000000000000000000000890300008b030000000000008d030000
            8f030000910300009303000091140000ad140000990300009b0300009d03
            00009f030000a1030000a3030000a10a0000bd0a0000a9030000ab030000
            ad030000af030000b1030000b3030000b50300006d0b0000b9030000bb03
            0000bd030000bf030000c1030000c3030000c50300006915000009160000
            cb030000cd030000cf030000d1030000d3030000d5030000d7030000d903
            0000db030000dd030000df030000e1030000e3030000e5030000e7030000
            e9030000eb030000ed030000ef030000f1030000f3030000f5030000f703
            0000f9030000fb030000fd030000ff030000010400000304000005040000
            07040000090400000b0400000d0400000f04000011040000130400001504
            000017040000190400001b0400001d0400001f0400002104000023040000
            2504000027040000290400002b0400002d0400002f040000310400003304
            000000000000000000004ff0000bdff8be020068dff8b612096801f00301
            00f01c00142801d14bf0020b002901d04bf0010bbbf1000f05d0a748a749
            dff8722200f09ff8a64880470bf0020abaf1000f0cd0dff86e02dff86e12
            02680b680fb44ff000024ff0ff0302600b609d489d4a9e4b022808d1dff8
            3e120a60dff842120a60dff836120b60012808d1dff82e120a60dff82a12
            0a60dff81e120b609348002809d193489349944a00f032f893489449944a
            00f02df894489449954a00f028f894489549dff8e62100f05af8bbf1000f
            12d092489249dff8da2100f051f80bf0020abaf1000f07d00fbc02600b60
            00bfaff30080aff30080dff828020ff2030e00474ff000004ff00001dff8
            1cf2fee72de9f841884225d0b2eb010200d5fee740ea010313f0030302d0
            00f01df819e04ff0000390461211f7d09a421cbff0c8f0c103f10103f8d1
            08f00f08b8f1000f08d004780c7000f1010001f10101b8f10108f6d1bde8
            f88108b54ff0000303780b7000f1010001f10101013af7d108bd884237d0
            00f00306002e14d04ff00405a5eb06044ff0080707fb06f8914669fa08f9
            002c07d080f8009069fa07f900f10100013cf5e74ff000060f46091a8846
            0911914614461546b14206d018bfa0e8340206f10106b142f8d108f00f08
            b8f1000f07d002704fea322200f10100b8f10108f4e77047fee7fee7fee7
            fee7fee7fee7fee7fee7fee7fee7fee7fee7fee7fee7fee7fee7fee7fee7
            fee7fee7fee7fee7fee7fee7fee7fee7fee7fee7fee7fee7fee7fee7fee7
            fee7fee7fee7fee7fee7fee7fee7fee7fee7fee7fee7fee7fee7fee7fee7
            fee7fee7fee7fee7fee7fee7fee7fee7fee7fee7fee7fee7fee7fee7fee7
            fee7fee7fee7fee7fee7fee7fee7fee7fee7fee7fee7fee7fee7fee7fee7
            fee7fee7fee7fee7fee7fee7fee7fee7fee7fee7fee7fee7fee770470000
            0000a2a2a2a2008003400880034010800340308003403480034038800340
            18080240000000f0002000000120b5040000000000000000000001000000
            01000000000000600000000090010000c0050060c005000008000020906a
            006010000020b0080020b0080020e00a0020e00a002000f00020e5230000
            c11700004ff602020c4bd3f84c11914206d00b4a536943f400735361fff7
            b2bfd3f8982042f48072c3f89820d3f8982022f08062c3f89820ebe700bf
            0080034000ed00e0f0b5244b83b0d3f89820510117d4d3f89820d2042ed5
            6a461f490868496803c2d3f89c2002a9c2f382120a4412f8082c012a23d0
            03d3dff890e0184b09e0d3f85011174a11f0040f164b18bf1346dff878e0
            154f154e164d164c1748174a1849cef800303b6033602b60236003601160
            03b0f0bddff850e0124beae7dff848e0094f0a4e0a4d0b4c0b480c4a0c49
            4ff40043e5e700800340fc67000040420f0080f0fa0240787d0124000020
            280000201c000020200000201400002018000020404b4c00002d31012c00
            002010b5054c237833b9044b13b10448aff300800123237010bdb0080020
            00000000586a0000084b10b51bb108480849aff300800848036803b910bd
            074b002bfbd0bde81040184700bf00000000586a0000b408002010000020
            000000002de9f04fdff854e283b070450446904600f0d1808b488c4b0546
            9a6c8b4e42f480724ff00b0c4ff40067206084f804c09a64c6f880719a6c
            22f480729a6400232b7122684ff0010c13722268744502f1080002f11005
            02f13409c0f3130a00f0704002f1380702f13006c5f3130b00eb4a1005f0
            7045c9f3130a09f0704905eb4b1509eb4a19c7f3130bc6f3130a07f07047
            06f0704607eb4b1706eb4a1600f1007006f1007605f1007509f1007907f1
            0077c0f804c0c0f808c0c0f800c02b616b61c9f80430c9f800307b607361
            b361f361fb6082f84430226882f84830226882f84c307cd05a4b9c4216d0
            2268002382f80c80a16084f80c8063612361a36123626362e361a362e362
            23636363a363e363637303b0bde8f08fa1600191fff7dbfe4c4b01991b68
            db00b3fbf1f3da09b2f5803f4fea5305d8d2012a58d9d4f800e0c3f3c73c
            0ef10c0000f0704606f10076c0f3130001271c36400137508ef804c02068
            d6b206702668a5eb821eaeebc21206f10c0506f1300000f0704c134405f0
            7042a3eb4e0302f100720cf1007ec5f31305c0f31300dbb21c326d014ff0
            000c0ef11c0e400142f805c04ef8007086f83c309ae7244b24489a6c4ff4
            806542f080024ff080470a26276026719a64c0f880519a6c256822f08002
            9a642ee7a1600191fff778fe1b4b01991b689be72668002506f10c0303f0
            704000f10070c3f3130301271c305b01c75035712368d2b21a70226802f1
            0c0002f1300300f0704703f0704607f10077c0f3130006f10076c3f31303
            1c3740011c365b013d50f55054e7000001400080034000e100e054090020
            2800002024000020940900200268137a03f00f030c2b0ad8dfe803f00709
            0e126d090a09090909096d00836a1bb97047c369002bfbd01847436a002b
            f7d01847283202f07043c2f31302520103f10071895810b511f0ff0f0446
            09d0c16a39b1884723682833c3f31302520103f070431a4402f100735b68
            13f0ff0f0bd0236b4bb1204698472268283202f07043c2f3130203eb4212
            02f100739b6813f0ff0f0bd0636b4bb1204698472268283202f07043c2f3
            130203eb421202f10073db6813f0ff0f0bd0a36b4bb12046984722682832
            02f07043c2f3130203eb421202f10072136913f0ff0f09d0e36b3bb12046
            bde810409fe7036a002b98d0184710bd1e4b984203d01e4b984200d07047
            01690029fbd04269002af8d030b40468457b237ddbb21d4313f0200f4573
            836911d0d51a0f2d1fd91025002201e004680169cb5c013223708369aa42
            03f101038361f4d342699a420cd103680021043303f0704202f10072c3f3
            130304325b014161d15030bc7047002dded1ebe79409002054090020f8b5
            0446fff710fe2368134e03f1300103f1340201f07045383302f0704003f0
            704705f10075c1f3130100f10070c2f31302c3f313034ff0000e0c354901
            0830520107f100775b0145f801e040f802e047f803e06662f8bd71090000
            114b984203d0114b984200d070470029fcd070b40e78aeb100250468427b
            237ddbb21a439b064273f9d54b1905f1100202e09542f1d00468267013f8
            016f0135002ef6d170bc70479409002054090020684620f007018d4601b5
            0348fff7e6febde801408546704794090020684620f007018d4601b50348
            fff7d8febde80140854670475409002030b4124c82b0236823f004032360
            636803f001030193019babb181b1451e002201e08a420bd015f8013f0132
            2361636803f001030193019b002bf2d11146084602b030bc70471946f9e7
            00bf006001400b4b10b50b4c1988236889b233b10a4a10689847094a0023
            13702360084b1a46196841f0010119601368db07fcd410bdec080020e808
            0020f4080020d808002000600140944af8b553689468dbb21c40a0071dd4
            e10700d4f8bd904e3378022b60d0052b2fd0012b4ed08b4a8c4c936823f0
            0103936023683bb18a4a002110689847894a00231370236000233370f8bd
            1069824e20f4ff43327823f07f039db2c0b2052a00f2bb80dfe812f09000
            9c009c00a40063004f007c4b1a68002a40f08e80e307c8d57a4c236883b9
            794b1b68002b00f0d180784898472060236833b96d4a0321936823f00103
            9360317023686f4c002b40f0b480674a0321936823f0010393603170f8bd
            6c4c23889bb2002b40f09280644b1b78002b9dd0bde8f840fff76ebf624c
            2368002bf3d0624d21682868fff73dff23689842ddd223682a681b1a1044
            23602860f8bd002db4d1554b534f1a683b6850702bb1104602219847514b
            3d601d7000233370e2077ff574af7be7002d2fd1524a4a4913880d689bb2
            2b4413f8013cf12b00f0a5804d49138809889bb28b4206d217881388bfb2
            01339bb2e85513801388454a9bb299427ff451af3b4f13883a6899b2002a
            d3d028469047394a002313703b60cce7002dccd0f12800f09080354b1a68
            002ac5d01b68984737e7002d3ff435af304b1a68002af5d12fe7002db8d0
            334b1b789842ead12f4a002313801188264d13882f68013389b29bb20425
            138078543570a5e7204d2b68002b9fd01f4a0021106898471e4a00231370
            2b6096e7244f21883d6889b22846fff7b5fe23889bb298421cd30022174b
            22801b68002b3ad002233370f8bd154d21682868fff7a3fe2a6823680244
            181a2a602060f8bd0b4b1b78002b3ff436affff7bdfe32e7238805441b1a
            9bb23d602380f8bd00bf00600140f8080020e8080020f4080020d8080020
            dc080020f0080020d0080020e4080020e0080020ec080020cc080020f908
            0020d408002003233370f8bd1188104f13888ab29bb23968a8541d4415f8
            010c00293ff43baf3b68984737e70a4b00271f8019881a88084d013292b2
            1a801b882d688ab29bb20421a8543170ef5427e700bfdc080020ec080020
            f40800202c4a036890422de9f04f1c68d3f81880d3f804c0d3f828e01f6b
            5e6bdd692cd0254a26491346d1f84890dff898a04ff0030b026080f804b0
            49f480690820c1f84890caf88001886c20f480608864116821f000411160
            24f001021a60c3f81880c3f804c01a6842f001021a60c3f828e01f635e63
            dd61bde8f08f104a1049936cdff8409043f400734ff0020b4ff0040a0160
            80f804b09364c9f880a1d2f84890036829f4007090640a6822f000420a60
            d1e700bf580a002000100140008003400010004000e100e0026830b49368
            dd053dd40369c568ab4210d28168194401e0ab420bd211f8014b01335461
            94680361e405f5d5ab4201d230bc70479368dd0510d4c36985699d4224d9
            4169194401e0ab4207d211f8014b013354619468c361e405f5d5436a002b
            e6d0c16983699942e2d3906810f48070ded1202301e0013bdad050619168
            c905f9d530bc7047c5680369cfe7436a002bebd1cde710b590f8803082b0
            022b0cd0012b18d003689a68520604d41a6900929a685206fad502b010bd
            0446236803e01969626f00911ab99a685106f8d5f2e700989047f2e70268
            93685c06ebd4036bc16a14698b42019404d2826a0199d154036b02689168
            013349060363f0d502b010bd00bf70b5036882b01a6a044692071d460ed5
            90f88020022a36d0012a9a6803d190e01a6901929a685206fad50222da60
            2a6ad60709d594f88020022a28d02046fff75dff23680122da602a6ad006
            48d42a6a51075cd42a6a12070bd5da6a94f8801042f008020229da625cd0
            01297fd00822da602b6a9b060dd402b070bd1969626f0191002a59d19a68
            5606f7d5cde7a26f5a61d7e72046fff77bff236a256b002b63d023680022
            102162626261a261e261d9609a6a0a439a62da6a002642f00c0226612046
            da62fff719ffe36f266313b12946a06a984723682022da6002b070bd2046
            fff755ff236a2bb1a06a216b98472046fff703ff236810219a6a012022f0
            100260629a62d9602a6a5107a2d5da6a204642f00402da62fff78cfe2368
            0422da6097e71a68a16f22f47f0222f47f4242f480721a60596199e70198
            90472368a1e750063ff571af226be16a18699142019004d9a36a01999954
            226b23689968013249062263f0d55fe72368a4e7002323612046fff7c2fe
            236878e7f8b504460279012553b224495b0902f01f02203305fa02f241f8
            23200021842201f0b2f92346656204f140014ff0ff325a6308338b42fbd1
            194b9c4216d01948194b01469a6c154d42f4806203270826206027719a64
            c5f880619a6c22f480629a640b6823f000430b60f8bd0e4b0b499a6c0e4e
            42f4007202250420266025719a64c1f880019a6c216822f400729a640b68
            23f000430b60f8bd00bf00e100e0580a0020001001400080034000100040
            f0b50579012645f3c40424f0604424f0030405f01f0504f16044ae4004f5
            6144c4f8806005684ff0000e2f6880f880e027f001072f602f68072947f0
            02072f602f6847f001072f609df8145013d832f040770cbf42f0505242f0
            40525b0800ebc10742f4817200ebc101013b7a6381f8393081f838502660
            f0bd00bff8b503791c4e5ab2012703f01f03520902f1200e07fa03f50368
            46f82e50d3f808e004461ef0040f0e4609d0fff7aefd217923684ab201f0
            1f01520907fa01f5186804ebc60420f001001860606b0121186094f83900
            b140986194f83800064c5860186840f001001860d8690143d96144f82250
            f8bd00bf00e100e00279f8b553b2134f02f01f0201265b0903f1200e06fa
            02f5026847f82e50d2f808e004461ef0040f0f4609d0fff770fd21792268
            4bb201f01f015b0906fa01f5d0690121b940034c20ea0101d16144f82350
            f8bd00e100e02de9f04f85b0bdf83880814602eb0807bfb28a469b46002f
            63d03c02d9f80000c36a43f00c03c36283685b075cd40168082521f00101
            0160016821f47f0323f47f43234303604560036843f00103036083685e06
            04d40369039383685d06fad5002a3ad09af800304361002f32d001260023
            31461d4608e01af8014001360131b6b2446189b2bd4224d28468640610d4
            0469aa42039408d8984504d903980bf80300d9f8000001339bb20135013e
            adb2b6b2846814f48074e5d1032ee3d88a42dad88f42dfd901310136bd42
            89b2b6b24461dad305b0bde8f08f002ffad04261c5e74ff4807499e74846
            0192fff7e4fcd9f80000019a9ae7684620f007018d4601b50348fff7befd
            bde8014085467047580a0020684620f007018d4601b50348fff7b0fdbde8
            014085467047d40900202de9f041224cdff894e02468214d4fea840c0ceb
            04064fea8608f70108f1402606f58036be44cef8043045447060b1606e68
            b2f5803f4fea16464fea06466e601bd86b6892b214491a4300236a600b61
            6444104aa3001a445168e40104f1844303f5201341f4e001012500245160
            c3f8c051c3f8cc41bde8f081074ba2f5803201f5803100f580301a61d960
            9860dfe71809002008400140fc080020c0012842684620f007018d4679b5
            2048204a0368204c03eb8301890003f52875012644f825600a4451683344
            042b08bf002321f4e00151600360184b1a697ab11748016804290cbf0021
            013101609868d9681b7dfff786ffbde879408546704702680c4902eb8202
            920011444a68084c12f4e002f0d10a4d5968012022602a6018700029e8d0
            8847bde8794085467047140900200840014000002842fc08002018090020
            684620f007018d46244b31b51b6813f4706f19d0224c23689900ca18d201
            02f1844202f52012d2f808223ab11d4a02205568107015b1a84723689900
            0b441a4adb011a4453680bbb144b1b6813f4704f05d0144b04205a681870
            02b19047bde83140124a12490123c2f8c8318546c2f8803ac2f84834c1f8
            803ac2f8c836c1f8843ac2f84839c1f8883a7047054b03205a681870002a
            d7d09047d5e70040014014090020fc080020080228420000284204002842
            174b10b49a6c174942f480129a649a6c01f1200442f0f07201209a6411f8
            012f42f3c40323f0604323f0030303f1604302f01f0203f5614300fa02f2
            a142c3f88020c3f88021e9d1054b5df8044b9a6c22f0f0729a649a6c22f4
            80129a647047008003405b6700001f2803d8024b53f820301960704700bf
            7c6700000a4a0b491368002b08bf0b46eff30881994203d91844814204d2
            fee705491844884202d8106018467047fee71c090020e00a002000f00020
            002a70b505460cdd0c468e18284600f043ff14f8012b2844094900f017ff
            b442f4d1284600f038ff064b2a1819889b78295293702946bde870400348
            fff750b9046800002c68000054090020000000002de9f047adf50e7d4eae
            00214ff48072304600f0a5fed04b0024dc660322cf484ff46141fff706f9
            cd49cc48fff730f90825cc48fff7d0fc21464ff0407280230095c848fff7
            20fdc748fff7c5fc4ff000724ff480732146c3480095fff714fdfff74cff
            20460521fff77cff01200521fff778ff02200521dff8f892fff772ff0320
            0521fff76eff09259f228df808200b948df830400a9402a9c9f888400aab
            0095b0480122fff797fdd9f88820af4b42f00802c9f8882093e8070086e8
            07002a4635460aa93046fff772ff4ff0010a4ff00508ff238df810308df8
            14408df80c8003a9c9f8884004ab52469d48cdf800a0fff771fdd9f88830
            9d4f43f00803c9f888300fcf0fc597e8070003c5130c25f8022b04a95246
            2b703046fff748ff4346062202218df818208df8b5408df8b6408df8b740
            8df8b4100df1b70202f8013f0133852bfad135468a4c0027c4f8887006a9
            83480097012205abfff73cfdd4f888304ff0010843f00803c4f888304246
            c4f8887003a97a48cdf8008004abfff72afdd4f88830dff810e243f00803
            c4f88830bee80f000fc59ee80f0007c52b803546424604a93046fff701ff
            c4f888702da9009705ab6a488422fff70cfdd4f888304ff0800843f00803
            3946c4f8883042460da800f0c3fd03238df81d708df81e708df81f708df8
            1c3007a9c4f888700dab5b480422cdf80080fff7ecfcd4f888305c4f43f0
            0803c4f888300fcf0fc597e8030045f8040b0b0c25f8021b2b7042463046
            0da9fff7c2fed4f88830524f43f00103c4f888303b681b0a0993099b2bb1
            099b013b0993099b002bf9d1002421464ff0040843480894fff752fc2246
            08ab2146cdf800803f48fff7b4fc21463446424d3c48fff782fc0fcd0fc4
            2b68424624f8023b1b0c2370304608a9fff78efe9df8230000f0d4f90446
            9df822000d4600f0cef90022364b00f030fa02460b462046294600f078f8
            04469df821000d4600f0bef900222f4b00f020fa02460b462046294600f0
            68f804469df820000d4600f0aef90022284b00f010fa0b46024629462046
            00f058f800f01afc044623492246304600f078fd31461348fef7beff2046
            00f095f902460b460ca1d1e9000100f01efb00221a4b00f0f0f900f028fc
            00f098f902460b463046164900f05cfd05483146fef7a2ff75e700bf0000
            40e59c309242008003405409002010680000580a0020d409002030680000
            3c68000000300140786800002c00002090680000000070400000f0400000
            7041a468000000002040b86800005868000081f0004102e000bf83f00043
            30b54fea41044fea430594ea050f08bf90ea020f1fbf54ea000c55ea020c
            7fea645c7fea655c00f0e2804fea5454d4eb5555b8bf6d420cdd2c4480ea
            020281ea030382ea000083ea010180ea020281ea0303362d88bf30bd11f0
            004f4fea01314ff4801c4cea113102d0404261eb410113f0004f4fea0333
            4cea133302d0524263eb430394ea050f00f0a780a4f10104d5f1200e0ddb
            02fa0efc22fa05f2801841f1000103fa0ef2801843fa05f359410ee0a5f1
            20050ef1200e012a03fa0efc28bf4cf0020c43fa05f3c01851ebe37101f0
            004507d54ff0000edcf1000c7eeb00006eeb0101b1f5801f1bd3b1f5001f
            0cd349085fea30004fea3c0c04f101044fea445212f5800f80f09a80bcf1
            004f08bf5fea500c50f1000041eb045141ea050130bd5fea4c0c404141eb
            010111f4801fa4f10104e9d191f0000f04bf01460020b1fa81f308bf2033
            a3f10b03b3f120020cda0c3208dd02f1140cc2f10c0201fa0cf021fa02f1
            0ce002f11402d8bfc2f1200c01fa02f120fa0cfcdcbf41ea0c019040e41a
            a2bf01eb0451294330bd6fea04041f3c1cda0c340edc04f11404c4f12002
            20fa04f001fa02f340ea030021fa04f345ea030130bdc4f10c04c4f12002
            20fa02f001fa04f340ea0300294630bd21fa04f0294630bd94f0000f83f4
            801306bf81f480110134013d4ee77fea645c18bf7fea655c29d094ea050f
            08bf90ea020f05d054ea000c04bf1946104630bd91ea030f1ebf00210020
            30bd5fea545c05d14000494128bf41f0004130bd14f580043cbf01f58011
            30bd01f0004545f0fe4141f470014ff0000030bd7fea645c1abf19461046
            7fea655c1cbf0b46024650ea013406bf52ea033591ea030f41f4002130bd
            00bf90f0000f04bf0021704730b54ff4806404f132044ff000054ff00001
            50e700bf90f0000f04bf0021704730b54ff4806404f1320410f0004548bf
            40424ff000013ee700bf42004feae2014fea31014fea02701fbf12f07f43
            93f07f4f81f06051704792f0000f14bf93f07f4f704730b54ff4607401f0
            004521f0004120e700bf50ea010208bf704730b54ff000050ae050ea0102
            08bf704730b511f0004502d5404261eb41014ff4806404f132045fea915c
            3ff4dcae4ff003025feadc0c18bf03325feadc0c18bf033202ebdc02c2f1
            200300fa03fc20fa02f001fa03fe40ea0e0021fa02f11444c1e600bf70b5
            4ff0ff0c4cf4e06c1cea11541dbf1cea135594ea0c0f95ea0c0f00f0def8
            2c4481ea030621ea4c5123ea4c5350ea013518bf52ea033541f4801143f4
            801338d0a0fb02ce4ff00005e1fb02e506f00042e0fb03e54ff00006e1fb
            03569cf0000f18bf4ef0010ea4f1ff04b6f5007f64f5407404d25fea4e0e
            6d4146eb060642eac62141ea55514feac52040ea5e504feace2eb4f1fd0c
            88bfbcf5e06f1ed8bef1004f08bf5fea500e50f1000041eb045170bd06f0
            004646ea010140ea020081ea0301b4eb5c04c2bfd4eb0c0541ea045170bd
            41f480114ff0000e013c00f3ab8014f1360fdebf002001f0004170bdc4f1
            0004203c35da0c341bdc04f11404c4f1200500fa05f320fa04f001fa05f2
            40ea020001f0004221f0004110ebd37021fa04f642eb06015eea430e08bf
            20ead37070bdc4f10c04c4f1200500fa04f320fa05f001fa04f240ea0200
            01f0004110ebd37041f100015eea430e08bf20ead37070bdc4f1200500fa
            05f24eea020e20fa04f301fa05f243ea020321fa04f001f0004121fa04f2
            20ea020000ebd3705eea430e08bf20ead37070bd94f0000f0fd101f00046
            400041eb010111f4801f08bf013cf7d041ea060195f0000f18bf704703f0
            0046520043eb030313f4801f08bf013df7d043ea0603704794ea0c0f0cea
            135518bf95ea0c0f0cd050ea410618bf52ea4306d1d181ea030101f00041
            4ff0000070bd50ea410606bf1046194652ea430619d094ea0c0f02d150ea
            013613d195ea0c0f05d152ea03361cbf104619460ad181ea030101f00041
            41f0fe4141f470014ff0000070bd41f0fe4141f4780170bd70b54ff0ff0c
            4cf4e06c1cea11541dbf1cea135594ea0c0f95ea0c0f00f0a7f8a4eb0504
            81ea030e52ea03354fea013100f088804fea03334ff0805545ea131343ea
            12634fea022245ea111545ea10654fea00260ef000419d4208bf964244f1
            fd0404f5407402d25b084fea3202b61a65eb03055b084fea32024ff48010
            4ff4002cb6eb020e75eb030e22bfb61a754640ea0c005b084fea3202b6eb
            020e75eb030e22bfb61a754640ea5c005b084fea3202b6eb020e75eb030e
            22bfb61a754640ea9c005b084fea3202b6eb020e75eb030e22bfb61a7546
            40eadc0055ea060e18d04fea051545ea16754fea06164feac30343ea5273
            4feac2025fea1c1cc0d111f4801f0bd141ea00014ff000004ff0004cb6e7
            11f4801f04bf01430020b4f1fd0c88bfbcf5e06f3ff6afaeb5eb030c04bf
            b6eb020c5fea500c50f1000041eb045170bd0ef0004e4eea113114eb5c04
            c2bfd4eb0c0541ea045170bd41f480114ff0000e013c90e645ea060e8de6
            0cea135594ea0c0f08bf95ea0c0f3ff43baf94ea0c0f0ad150ea01347ff4
            34af95ea0c0f7ff425af104619462ce795ea0c0f06d152ea03353ff4fdae
            1046194622e750ea410618bf52ea43067ff4c5ae50ea41047ff40daf52ea
            43057ff4ebae12e74fea410212f5001215d211d56ff47873b3eb625212d9
            4feac12343f0004343ea505311f0004f23fa02f018bf404270474ff00000
            704750ea013005d111f0004008bf6ff0004070474ff00000704700bf4fea
            4102b2f1e04324bfb3f5001cdcf1fe5c0dd901f0004c4feac0024cea5070
            b2f1004f40eb830008bf20f00100704711f0804f21d113f13872bcbf01f0
            0040704741f480114fea5252c2f11802c2f1200c10fa0cf320fa02f018bf
            40f001004feac1234fead32303fa0cfc40ea0c0023fa02f34fea4303cce7
            7fea625307d150ea01331ebf4ff0fe4040f44000704701f0004040f0fe40
            40f40000704700bf70b50f4e0f4d761bb61018bf002405d0013455f8043b
            9847a642f9d10a4e0b4d04f028fb761bb61018bf002406d0013455f8043b
            9847a642f9d170bd70bd00bf706a0000706a0000786a0000706a00008446
            41ea000313f0030349d1403a23d30b6803604b6843608b688360cb68c360
            0b6903614b6943618b698361cb69c3610b6a03624b6a43628b6a8362cb6a
            c3620b6b03634b6b43638b6b8363cb6bc36340304031403adbd230320bd3
            0b6803604b6843608b688360cb68c36010301031103af3d20c3205d351f8
            043b40f8043b043af9d2043208d0d2071cbf11f8013b00f8013b01d30b88
            03806046704700bf082a13d38b07b1d010f00303aed0c3f10403d21adb07
            1cbf11f8013b00f8013ba4d331f8023b20f8023b9fe7043ad9d3013a11f8
            013b00f8013bf9d20b7803704b7843708b7883706046704770b4840746d0
            541e002a41d0cdb2034602e0621ee4b3144603f8015b9a07f8d1032c2ed9
            cdb245ea05250f2c45ea054519d9264603f11002103e0f2e42f8105c42f8
            0c5c42f8085c42f8045c02f11002f2d8a4f1100222f00f0204f00f041032
            032c13440dd91e462246043a032a46f8045bfad8221f22f0030204321344
            04f003042cb1c9b21c4403f8011ba342fbd170bc704714460346c2e700bf
            0eb4f0b506464ff6ff7e9cb021ac54f8042b0d4923466ff0004508684ff4
            027702a9029606960194adf816e0adf814700495079500f038f8029b0022
            1a701cb0bde8f04003b070475804002020f0030110f00300c0f1000051f8
            043b00f1040c4feacc0c6ff000021cbf22fa0cf213434ff0010c4cea0c2c
            4cea0c4ca3eb0c0222ea030212eacc1204bf51f8043b0430f4d0c2f10001
            02ea0102b2fa82f2c2f11f0200ebd20070472de9f04fc1b089460a920e93
            089002f081fa036818461793fff7c4ffb9f80c3018901c0604d5d9f81030
            002b01f0c28030af3c464e4600231393169319930b932593249323971493
            15930a9d2b78002b00f0a980252b02d1a5e0252b03d015f8013f002bf9d1
            0a9beb1a73b1249a259901320a981944072a84e809002591249272dc0834
            0b9a1a440b922b78002b00f0e28700231a46691c6d788df86f300c930793
            4ff0ff3a4b1ca5f12001582900f2ea83dfe811f06d02e803e803d102e803
            e803e803e803e803e803bc020d02e803f4011102e803d8027b027b027b02
            7b027b027b027b027b027b02e803e803e803e803e803e803e803e803e803
            e8038a02df02e803df02e803e803e803e803cb03e803e8032f03e803e803
            e803e803e8034d03e803e8036703e803e803e803e803e803e803e803e803
            e803e80382032b02df02df02df02ca022b02e803e803b202e803d203fb01
            19037402e803a303e8037a00e803e80347020898314623aa079302f0e4ff
            50b93c46079b83e70898314623aa02f0dbff002800f08581b146b9f80c30
            13f0400f0b9b18bf4ff0ff33184641b0bde8f08f0a9d6fe70a93079b9806
            40f1d7820e9b03f1070929f0070303f10802d3e900890e92012300229446
            cdf844a08df86f20baf1000f03db079a22f08002079258ea090240f06f83
            baf1000f00f07484012b00f07283022b00f0c28439464fead80242ea4972
            4fead90008f0070381469046303358ea090201f8013defd1079a1091d207
            00f17f857b1a0d930d9a53469245b8bf1346099300231293bcf1000f02d0
            099b01330993079b13f002030f9302d0099b02330993079b13f0840940f0
            2f830c9b099ac2eb0308b8f1000f40f32783b8f1100f2599249adff870a5
            29dd53464ff0100bc246a8461d4606e0aaf1100abaf1100f04f1080417dd
            01321031072a2591249284e82008f0dd0898314623aa02f041ff00287ff4
            66afaaf1100abaf1100f3c462599249ae7dc2b464546d0469a46013208eb
            010b072acdf894b02492c4f800a0c4f8048000f3de829df86fc00834bcf1
            000f0fd0249b0bf1010b01330df16f010122072bcdf894b0249384e80600
            00f3fd8308340f9b73b1249b0bf1020b01331ca90222072bcdf894b02493
            84e8060000f3f9830834b9f1800f00f03483119b0d9ac2eb030abaf1000f
            3cddbaf1100f249adff894942bdd49465b46a9464ff01008ddf820b00d46
            06e0aaf1100abaf1100f04f1080417dd01321033072a2593249284e82001
            f0dd5846314623aa02f0d0fe00287ff4f5aeaaf1100abaf1100f3c46259b
            249ae7dc9b462b464d4699460132d344072acdf894b0249284e8000600f3
            98830834079bd90500f18f82249b0d990133109a8b44072bcdf894b02260
            6160249300f3b8830834079b5a0741d50c9b099a9d1a002d3cdd102d249b
            dff8e4a323dd4ff010085a46ddf8209004e0103d102d04f1080417dd0133
            1032072b25922493c4f800a0c4f80480f0dd4846314623aa02f07dfe0028
            7ff4a2ae103d102d3c46259a249be7dc93460133ab44072bcdf894b02493
            c4f800a0656009dd0898314623aa02f064fe00287ff489aeddf894b00b9b
            099a0c998a42acbf9b185b180b93bbf1000f7ff473ae002324933c46d5e5
            1946079840f0040007901d78fce50a93079b13f0200300f038810e9b03f1
            070929f0070303f10802d3e900890e9200237ce61d7819462b22e6e51d78
            591c2a2d00f0e587a5f1300009280b464ff0000a3ff6dbad13f8015b0aeb
            8a0a00eb4a0aa5f130000928f5d94aeaea7acde50a93079b8df86f209806
            62d50e9b03f1070929f00709d9e9002309f10801904699460e91002a73f1
            000364db9df86fc0cdf844a0012348e60a93a74b8df86f201693079b9b06
            40f120810e9b03f1070929f0070303f108020e92d3e90089079bd90740f1
            228158ea090300f01e81079a302342f002028df870308df8715007920223
            1ce6002a40f0e5841d781946202283e5079941f0200107911d7819467ce5
            a5f13000002113f8015b01eb810100eb4101a5f130000928f5d90c916ee5
            0a93079b8df86f2043f010030793079b98069cd4079bd90640f1c1840e9a
            13461b6804320e924feae3791a4698464b46002a73f100039ada4ff02d0c
            d8f1000869eb49098df86fc0cdf844a00123dde51d7807996c2d00f02585
            41f01001079119463be50e9d296808460c912946002801f10401c0f21d85
            0e911d7819462de5079941f0400107911d78194626e5079941f001010791
            1d7819461fe5079941f0800107911d78194618e50a93079b8df86f2013f0
            080f0e9bd34603f1070900f0378429f0070303f108020e921a685b681492
            15931599149802f00dfd01281599149840f00b840022002303f020fa0028
            40f039869df86fc0079b484a23f0800307931346dff828e10321472dd8bf
            734600200991119010930d911290abe50e9907980a9330230a688df87030
            3b4b782540f002000431169307900e9190464ff000098df8715002235ae5
            0a93079b43f010030793079b13f020037ff4c8ae079a12f0100240f00a83
            079b13f0400300f005830e9913460a460432b1f800804ff000090e923ce5
            0a93079b43f010030793079b98063ff529ad079bd90600f1f782079b5a06
            40f1f3820e9a4ff00009b2f80080043201230e9222e50a93194b8df86f20
            1693079b9b063ff5e0ae079bd80640f1bb830e9a13461b6804329846079b
            0e92d9074ff000093ff5deae022307e50e980a93026800238df898200246
            01219c4604328df86f301193129326ab09910e920d91109334e500bf1c69
            0000fc68000008690000e8680000d8680000f86800000e9a0a9313684ff0
            000b10938df86fb002f10409002b00f05885baf1000f1098c0f2ea845946
            524602f000f9002800f08985109bcdf844b0c31a0d93cdf8389023eae373
            0993cdf848b09df86fc0f9e4079941f0080107911d78194625e40a93079b
            8df86f209a0640f165830e9a134604330e930b9b11684feae3791a469846
            4b46c1e90023fff7e2bb0a938df86f20002d00f0e283002301229c468df8
            6f301193129326ab09928df898500d921093cee40898314623aa02f042fc
            00287ff467ac3c469df86fc0ddf894b016e5012b7ff495acb9f1000f08bf
            b8f10a0f80f006820df5807b08f130080bf8418dcbeb07030d93cdf840b0
            9ce4652d40f3a080149815990022002303f0eef8002800f05481249bc149
            01330bf1010b0122072bcdf894b0249384e8060000f33e8308341d9b139a
            934203db079bda077ff55cad249b18990133179a8b44072bcdf894b02260
            6160249300f31a840834139b5d1e002d7ff749ad102d249bdff8b49240f3
            ef804ff010085a46ddf820a004e00834103d102d40f3e38001331032072b
            25922493c4f80090c4f80480f0dd5046314623aa02f0cdfb00287ff4f2ab
            3c46259a249be5e70c9b099ac2eb030abaf1000f7ff7c4acbaf1100f249a
            dff854922bdd49465b46a9464ff01008ddf820b00d4606e0aaf1100abaf1
            100f04f1080417dd01321033072a2593249284e82001f0dd5846314623aa
            02f09bfb00287ff4c0abaaf1100abaf1100f3c46259b249ae7dc9b462b46
            4d4699460132d344072acdf894b0249284e8000600f33a82083485e4139b
            249d012b40f3fc81013510990bf101030122072d259321602495626000f3
            0e8208341899013503eb010b179b072dcdf894b024952360616000f30c82
            0834002314981599002203f02ef8139b002840f0e380109a013b01350132
            9b44072d22602495cdf894b0636000f313810834199a013593441fab072d
            cdf894b02495626023607ff797ac0898314623aa02f037fb00287ff45cab
            3c46ddf894b08be4002b4cd1079bd80749d50df5807b30230bf8413dcbeb
            07030d93cdf840b0fff799bb0898314623aa02f01afb00287ff43fab3c46
            ddf894b05ce40898314623aa02f00efb00287ff433ab3c46ddf894b0fff7
            f7bb0898314623aa02f001fb00287ff426ab3c46ddf894b0fff7fbbb9346
            0133ab44072bcdf894b02493c4f8009065607ff748ac0898314623aa02f0
            e8fa00287ff40dabddf894b03c463ce4cdf834a01097fff756bbbb461698
            4fea181343ea09734fea191108f00f0289469846835c0bf8013d58ea0903
            efd15b46cdf840b0fb1a0d93fff73dbb1d9d002d40f30082139a12991346
            8a42a8bf0b461d461099002d01eb020a0cdd0a46249bab440133072bcdf8
            94b084e82400249300f348830834129b002da8bf5b1b002b1d4640f3c180
            102d249bdff8149040f3c0815a464ff01008ddf820b008e038690000d868
            00000834103d102d40f3b08101331032072b25922493c4f80090c4f80480
            f0dd5846314623aa02f07afa00287ff49faa3c46259a249be5e703f1ff38
            b8f1000f7ff725afb8f1100fdff8489525dd5b464ff0100addf820b006e0
            a8f11008b8f1100f04f1080417dd01351033072d2593249584e80006f0dd
            5846314623aa02f04efa00287ff473aaa8f11008b8f1100f3c46259b249d
            e7dc9b460135c344072dcdf894b02495c4f80090c4f804807ff7edae0898
            314623aa02f031fa00287ff456aaddf894b0249d3c46e0e6bb46cdf824c0
            404649460a22002302f026ff3032404649460bf8012d00230a2202f01dff
            8046894658ea0903ebd15b46fb1addf824c0cdf840b00d93fff783ba302b
            109b3ff43eaf013b1a461093ba1a30230d9201f8013cfff775ba0e994ff0
            00090a6804310e919046fff739ba0e9901230a6804310e9190464ff00009
            fff72fba0898314623aa02f0e3f900287ff408aa3c46ddf894b0109a1299
            1d9b0a449046139a934246db079ad00743d4139ac8eb0a05d31a9d42a8bf
            1d46002d0cdd249aab440132072acdf894b0c4f800806560249200f39682
            0834002db4bf1d465d1b002d7ff711ab102d249bdff8d8937ff7b7ae4ff0
            10085a46ddf820a004e00834103d102d7ff7abae01331032072b25922493
            c4f80090c4f80480f0dd5046314623aa02f095f900287ff4baa93c46259a
            249be5e7249a1898013217998344072acdf894b021606060249200f33982
            0834ace7079bd9073ff500ae0135109a0bf1010b0123072dcdf894b02260
            249563607ff725ae0898314623aa02f069f900287ff48ea93c46ddf894b0
            249d18e60898314623aa02f05cf900287ff481a93c46259b249de6e50898
            314623aa02f050f900287ff475a93c46ddf894b0249de7e50898314623aa
            02f043f900287ff468a93c46ddf894b0fff741ba02f0fbf8002840f0dd80
            b44ab54b8646472dd8bf1a4611900798032120f0800009910790cdf848e0
            10920d919df86fc0fff7a3b929f00709d9f800301493d9f80430159309f1
            08030e93fff7c5bb079b0e9a13f0400f13463ff440ac0433b2f800804ff0
            00090e93fff71cbb079bdb060bd4079b5d0608d50e9a136804320e92bdf8
            2c201a80fff77db80e9a136804320e920b9a1a60fff775b819461d78fff7
            9fb8079b0e9a13f0400f13463ff43aabb2f9008004334feae8790e934246
            4b46fff7d3ba93460133ab44072bcdf894b02493c4f8009065603ff7e5ae
            0834ede60898314623aa02f0c6f800287ff4eba83c46ddf894b0b6e4249b
            7a4901330bf1010b0122072bcdf894b0249384e8060000f3fd8008342db9
            139b1bb9079bdb077ff505aa249b18980133179a0beb0001072b25912260
            6060249300f3f48104f108026d42002d40f30781102ddff89c9140f33e81
            1024ddf8208004e00832103d102d40f3358101331031072b25912493c2f8
            00905460f1dd4046314623aa02f07af800287ff49fa83a462599249be6e7
            259bb146002b3ff497a80898314623aa02f069f8fff790b841f020010791
            5d78591cfff715b80c980e9140420c901946fff70bba25f02003baf1ff3f
            0d9300f0ab80472b05d1baf1000f14bfd3464ff0010b079b43f480731193
            159bb3f1000a149b0993b7bf5346002303f1004a2d23662d0f9300f0b980
            462d00f0b6800d9b0220452b14bfd9460bf101091da98de8010202911ea8
            21a90390099a53460491089800f0a4fa672d109002d0472d40f0ac80079b
            db0740f19681109b03eb0908099851460022002302f0e1fc002840f00a81
            219b984506d930215a1c21921970219b9845f9d8109a9b1a13930d9b472b
            1d9b00f0eb80652d40f30581662d129300f06481139b129a934200f35181
            079bd90700f1888122eae2730d920f9a002a40f0c9800993119b9df86fc0
            07931192fff75bb80898314623aa01f0d4ff00287ef4f9af3c46ddf894b0
            fff7dabb046900000069000038690000d86800000898402101f0b0f9c9f8
            0000c9f81000002800f086814023c9f81430fef72ebf0898314623aa01f0
            afff00287ef4d4af3c461d9dddf894b0f6e64ff0060b59e7cdf844b0fef7
            d4fecdf838900d900346fff71abb0898314623aa01f095ff00287ef4baaf
            3a462599249b139c013301eb040b1099072bcdf894b02493116054603ff7
            95ac02f10804fff7dab803201da98de8010802911ea821a90390099a5346
            0491089800f0f4f9d9461090109b03eb09080d9b462b7ff454af109b1b78
            302b00f0e4801d9b98444be70898314623aa01f05aff00287ef47faf3c46
            ddf894b0ace401332944072b25912493c2f800905560afdc0832b8e70898
            314623aa01f043ff00287ef468af3c461d9bddf894b068e55346062b28bf
            06230d9323eae373ddf840c00993844bcdf83890cdf844c0cdf848c01093
            fef7a9bf0898314623aa01f022ff00287ef447af1d9b139addf894b0d31a
            3c465be50993119b4ff02d0c079300238df86fc01193fef792bfda1c19db
            9b4517db1293672514e72d239c468df86f30fff7c3b94346fde62aeaea73
            1190cdf8389012909df86fc00993cdf834a0fef773bf023d013b002b1d93
            babf5b422d222b22092b8df87c508df87d207add0df18b0001465c4a82fb
            032eda17c2ebae0e0eeb8e02a3eb420273463032092b01f8012defdc0a46
            30335ffa83fe02f801ed904240f29b800df17e020b4601e013f801eb8342
            02f801ebf9d123ab5b1a0df17e0213441faa9b1a139a1993012a13440d93
            5edd0d9b002201330d93129223eae373c2e60898314623aa01f0a3fe0028
            7ef4c8ae3a461d9d2599249b00e6129b002bd8bfc3f10208139bc8bf4ff0
            010843440d9323eae373a7e6002b30ddbbf1000f17d1079bdb0714d4129a
            22eae2730d929ae6219b7de6099851460022002302f04cfb00287ff413af
            c9f101031d9398445ce6129b0bf1010843440d9323eae37382e630333022
            8df87f308df87e2020aba7e7129b01330d9323eae37374e6bbf1000f1dd1
            079bd8071ad401230d936be6079b13f001039cd112930d9b23eae37362e6
            0e9d2846d5f800a00430baf1000f5d780e90bef6f2ad4ff0ff3afef7eebd
            0bf102030d9323eae3734de6089a0c2313604ff0ff30fef75ebe0df17e03
            70e700bf3069000067666666024b13b1024800f005b87047000000004d4b
            0000014600200246034601f096be2de9f04f03690f6983b09f4200f38b80
            013f01f1140600f1140a56f827305af827200133b2fbf3f8bb00009306eb
            030953440193b8f1000f3dd000231c46b446d6461a465cf804bbdef80050
            1ffa8bf34fea1b4b03fb08220bfb08f303eb124392b2a41a1ffa83fbaab2
            2244cbeb154404eb224492b242ea0442e1454ef8042b4fea24444fea1342
            dcd2009b5af803308bb9019c231f9a450cd254f8043c4bb9a4f1080302e0
            1a68043b1ab99a4507f1ff37f8d30761044601f08efc00282edb00235546
            194608f1010856f8042b2b6890b2081a120c99b2c2eb1343421803eb2243
            92b242ea0342b14545f8042b4fea2341ead25af827200aeb87037ab91a1f
            92450bd253f8042c42b9083b02e01a68043b1ab99a4507f1ff37f8d32761
            404603b0bde8f08f002003b0bde8f08f00bf2de9f04f016c99b00446cde9
            0223259d41b1426c012393408b604a6001f058fa00232364dde90223002b
            994636db00232b60a54b1a4609ea0303934217d0dde90267002200233046
            394602f029fa804600282bd0249a01231360269b002b00f0cb809a481860
            013819b0bde8f08f42f20f73249a1360029b002b00f0a6809448269b002b
            f0d0c378002b00f0b78000f10803269a136019b0bde8f08f039a012322f0
            00492b60cdf80c90c2e717aa16ab8de80c00204632463b4601f08bfc5fea
            1955834640f08a80ddf85880179d6ff4826345449d42c0f295827e4a05f2
            1243521b09fa02f9029a22fa03f049ea0000fef724f80123013da1f1f871
            12930022754bfdf7ddfe6aa3d3e90023fef78cf869a3d3e90023fdf7d5fe
            064628460f46fef71cf866a3d3e90023fef77df802460b4630463946fdf7
            c5fe06460f46fef785fa3946059000223046002302f0b2f9002840f0a481
            059b162b00f29d81dde9022305985d4901ebc001d1e9000102f0bff90028
            00f05082059b013b059300230c93c5eb0805b5f1010a00f19f8100230693
            059b002bc0f290819a440b9300230993229b092b2bd8052b40f37786043b
            22930025229b023b032b00f25586dfe813f0cf03c103b0026a06414b444a
            c9f31300002814bf1846104651e7c7f3130343f07f51cdf848803046a5f2
            ff3541f44011ddf8588082e73a4835e7c31c48e7002161642046229101f0
            3af94ff0ff33229a07930d9301230890239220640a93179b002bc0f2d080
            059a0e2a00f3cc802a4b03ebc203d3e90089239b002bc0f29283dde90267
            42464b4630463946fef715f9fef7fbf98246fdf780ff42464b46fdf7e2ff
            02460b4630463946fdf728fe079e089f0af13005012e3d7002460b4607f1
            010562d00022174bfdf7cdff0022002306460f4602f003f9002840f08180
            cdf808b0ddf820a0ddf81cb006942ae061436f63a787d23fb3c8608b288a
            c63ffb799f501344d33f0000f07f39690000486900000efcffff0000f83f
            586900003c69000038690000000024400022c84bfdf79aff002200230646
            0f4602f0d0f8002840f0e08342464b4630463946fef7b5f8fef79bf90446
            fdf720ff42464b46fdf782ff02460b4630463946fdf7c8fd04f1300605f8
            016bcaeb0506b34502460b46d3d1a246ddf808b0069c10461946fdf7b8fd
            06460f464046494632463b4602f0a8f848b94046494632463b4602f097f8
            b0b11af0010f13d015f8018c6b1e089904e08b4200f0458413f8018db8f1
            390f03f101051a46f4d008f10103dbb213702046594601f093f80022059b
            2a70249a01331360269b002b00f04a8308981d6019b0bde8f08f0a9a002a
            00f08480229a012a40f30983079b5f1e099bbb42c0f2af83df1b079b002b
            c0f2a584069d079b069a20461a44012106929a4401f001f9064665b1baf1
            000f09ddaa455346a8bf2b46069aed1ad21a0692c3eb0a0a099b002b1add
            0a9b002b00f08383002f10dd31463a46204601f08ef906465a4631462046
            01f0e8f880465946204601f03ff8c346099bda1b40f0a7822046012101f0
            d0f80b9b8046002b39dd01461a46204601f071f9229b8046012b40f39b82
            4ff00009d8f8103008eb8303186901f06bf8c0f120002de001230c9371e6
            0598fdf75cfe32463b4601f0faff00287ff452ae059b013b05934de6069a
            059bd21a5b420993002306920b936ae6caf1000306934ff0000a5ce6099f
            069d0a9e91e7229b012b40f3b8824ff000090b9b002bc8d10120504410f0
            1f0000f08180c0f12003042b40f3c184c0f11c00069b0544034406938244
            069b002b05dd59461a46204601f069f98346baf1000f05dd414652462046
            01f060f980460c9b002b40f06d82079b002b40f39b820a9b002b71d1ddf8
            2090079f4d4604e05946204600f0c1ff834658464146fff7b2fc303005f8
            010bc9eb0503bb424ff00a024ff00003ebdb089b079a8446012aacbf9b18
            01331d464ff0000a594601222046cdf808c001f02af94146834601f07ef9
            0028ddf808c040f3fc8215f8012c6b1e089904e08b4200f0798213f8012d
            392a03f10105f6d001321a704146204600f079ff002e3ff4dfaebaf1000f
            05d0b24503d05146204600f06dff3146204600f069ffd0e61c2083e7034b
            029a5b1b02fa03f06fe500002440eefbffff0c90b2e53146002320460a22
            00f05eff0d9b0646002b40f315840793002d05dd31462a46204601f0dbf8
            0646b9f1000f40f0ee82b146089a079b1746013bd3180993029b03f00103
            0a9341465846fff733fc31460546584601f01af94a4682464146204601f0
            38f9c268034605f1300c002a40f0bd8119465846cdf81cc0069301f006f9
            069b02901946204600f014ff029addf81cc02ab9229b1bb90a9b002b00f0
            b083baf1000fc0f2578205d1229b1bb90a9b002b00f05082002a00f3bc82
            099b07f1010a9f4287f800c0554600f0bf8259460a220023204600f0f7fe
            4e458346314620464ff00a024ff0000300f0798100f0ebfe494606460a22
            2046002300f0e4fe574681469fe701230a93239b002b40f319821f461e46
            0d9307930021172f61640ad9012204235b0003f114008742114602f10102
            f7d26164204600f093fe0e2e089020643ff65ead002d3ff45baddde90223
            0599cde90e23002940f32682ba4b01f00f020d1103ebc203e906d3e90067
            40f1e181dde90e01b44b05f00f05d3e90823fdf76dfecde902014ff00308
            8db130463946dff8b492ea0705d5d9e90023fdf734fd08f101086d1009f1
            0809f3d106460f46dde9020132463b46fdf750fecde902010c9b43b1dde9
            02010022a04b01f062fe002840f0b5824046fdf7b0fcdde90223fdf712fd
            9a4b0022fdf75cfb079b0646a1f15077002b00f06881059bddf81cc01393
            0a9b002b00f026828e4b002003ebcc0353e902238f49cdf850c0fdf71efe
            32463b46fdf73cfbdde90267cde9100139463046fdf7fafe0546fdf77ffc
            02460b4630463946fdf72bfbdde9102330355ffa85f8089d064685f80080
            0f46013501f018fe002840f0b98232463b4600207649fdf715fb02460b46
            dde9100101f027fe002840f0b382ddf850c0bcf1010f40f33a81089bcdf8
            50a0cdf808b003eb0c09dde910aba0460fe032463b4600206649fdf7f5fa
            52465b4601f0ebfd002840f090824d4500f01a81504659460022614bfdf7
            99fc00225f4b82468b4630463946fdf791fc0f460646fdf79ffe0446fdf7
            24fc02460b4630463946fdf7d0fa3034e4b205f8014b52465b4606460f46
            01f0c0fd0028c8d0139bddf808b0444605932ee500230a93239b059a1344
            0d930133002b079340f30a81079e3746eae600230a93dfe6079b002b3ff7
            6aac40f0668240460022414b4946fdf755fcdde9022301f0abfdddf81c80
            4646002800f08b80239b089ddb4305934146204600f097fd002e7ff427ae
            fbe45946204600f0d3fe834652e5029b002b7ff461ad039bc3f31303002b
            7ff48fad039b23f000473f0d3f05002f00f01e82069b0af1010a01330693
            4ff0010980e5129a002a00f0a98103f23343099f069dfae400f072fd5746
            064681462ce601462046cdf808c000f05efd0122ddf808c04fe658464146
            00f042ff0028bff68cad059f5946002320460a22013f059700f054fd0a9b
            8346002b7ff4ebad0d9b002b40f3fc8107937ee50898fff708bb029b002b
            7ff444adade700bf58690000306a00000000f03f00001c400000e03f0000
            244000001440229b022b7ff761ad079b002b81d141460522204600f026fd
            80465846414600f003ff00287ff775af059a08993123013205920b704d1c
            70e7059a312301320592089a137087e5ddf808b0069c69e44046fdf744fb
            dde90223fdf7a6fb0022be4bfdf7f0f90646a1f15077dde902010022ba4b
            fdf7e5f932463b46cde9020101f0f7fc8046002840f0b280dde902013246
            07f1004301f0cefc30b1464639e74446ddf850a0ddf808b0dde90e23cde9
            0223fff776bb5946099a204600f00dfe83468ce4099b0b9afb1a1a440997
            0b92002749e4dde90e234ff00208cde9022324e6012623960d9607960021
            6164f2e51e46fae7002a15dd594601222046cdf808c000f03afe41468346
            00f08efe0028ddf808c040f34d81bcf1390f00f009810cf1010cb24687f8
            00c07d1c4e4613e504d11cf0010f01d0fee4154615f8013c6a1e302bf9d0
            07e5059b5d42002d00f0c180dde90e01824b05f00f0203ebc203d3e90023
            fdf721fb2d11cde9020100f030817c4e4ff00208eb0705d5d6e90023fdf7
            13fb08f101086d1006f10806f3d1cde90201e5e5059a302301320592089a
            137031231370fff7bdbb7168204600f028fc0546336906f10c019a1c9200
            0c30fdf7a5fd20462946012200f0d6fd8146fee4bcf1390f00f0ac800cf1
            010cb24687f800c07d1c4e46b6e4b2464e4693e44ff00008464618e75a49
            0cf1ff3301ebc3013246d1e9000114933b46cdf854c0fdf7cbfadde90267
            cde9100139463046fdf7d5fc0546fdf75afa02460b4630463946fdf706f9
            ddf854c0089a3035bcf1010f157006460f4602f1010523d0089bcdf808a0
            63445e469a46ab460022424bfdf7a3fa89468046fdf7b1fc0746fdf736fa
            303702460b4640464946fdf7e1f80bf8017bd345e9d1b3460f460646149b
            ddf808a01d440022354bdde91001fdf7d2f832463b4601f0c6fb002848d0
            139b059315f8018cfff723bb069b079a9d1a0023fff757bb169b099fc3f1
            3603069dfff750bbdde90e234ff00208cde902233fe5079b002b3ff4b3ae
            0d9d002d7ff7dcaedde9020100221c4bfdf756fa06460f4608f10100cde9
            0267fdf7e8f902460b4630463946fdf748fa0f4b0022fdf792f8059b0646
            013b1393a1f15077ac4638e53922b2463a704e467d1cfff7febbdde91023
            00200949fdf77bf832463b4601f08ffb70b9a8e600bf00001c4000001440
            58690000306a0000000024400000e03f154615f8013c6a1e302bf9d0139b
            0593fff7cfba4346a0461c46ddf808b0139b0593fff7b4bab946fff768bb
            bcf1390fc6d0baf1000f7ff7bcae05f1310cb8e67ff4b7ae1cf0010f3ff4
            b3aeabe64ff000084646a5e5229b022b04dc0d9bfee54ff00208c4e40d9b
            079315e6229b022bf9dc0d9bfff7e5bb002565642946204600f006fb4ff0
            ff3307930d9301230890239520640a93fff7cbb93ff444abc0f13c00fff7
            3bbb01230a9355e50125fff789b900bf38b5084b084ded1aac1018bfed18
            05d0013c55f8043d9847002cf9d1bde8384001f07abf786a00007c6a0000
            004870475c0400202de9f04f01f10b05162d83b0064627d935f0070500f1
            b680a94200f2b38000f0bffab5f5fc7f22d2bc4fe80807ebc003dc689c42
            00f0bc816368e16823f0030323445a68a56842f00102e96030468d605a60
            00f0a7fa0834204603b0bde8f08f102900f28f8000f09bfa1025dce7680a
            00f08f80042800f24781a80938304100a64f07eb8101cc68a14206d10ce0
            002a80f28280e468a14206d0636823f003035a1b0f2af3dd013801309c49
            3c6901f1080e744500f07181636823f003035a1b0f2a00f35781002ac1f8
            14e0c1f810e066dab3f5007f80f02d81db0801ebc3084feaa30c4a680123
            03fa0cf3d8f808c01343c4f808c0c4f80c804b60c8f80840ccf80c408210
            012494409c4255d8234206d120f003006400234200f10400fad007ebc008
            c4468146dcf80c309c4507d135e1002980f24581db689c4500f02f815a68
            22f00302511b0f29f2dd1c46da6854f808cf45f0010941f001081d44c3f8
            04903046ccf80c20c2f808c07d613d61c5f80ce0c5f808e0c5f804806950
            00f011fa69e7002420460c23336003b0bde8f08f7e213f2073e723445a68
            e16851e723445a68304642f001025a60083400f0f9f9204603b0bde8f08f
            bc68636823f00308454504d8c5eb08030f2b00f38c80534bdff85ca11a68
            daf800302a44013304eb080b00f0518102f580520f3222f47f6222f00f02
            11463046019200f0fefcb0f1ff3f8146019a00f04881834500f2ef80444b
            cb4519681144196000f04381daf80000dff808e101301bbfcbeb090b5944
            cef80090196019f0070100f00881c1f10800c1f58051814408314a44c2f3
            0b02c2eb010a51463046019300f0cefc431c019b00f02d81c9eb00025244
            42f001021968bc425144c7f808901960c9f80420dff8a0a016d0b8f10f0f
            40f2ef806268a8f10c0323f0070302f00102e0184ff0050e1a430f2b6260
            c0f804e0c0f808e000f20a811c4bbc681a68914288bf19601a4b1a689142
            626888bf196022f003029542a2eb050301d80f2b04dc304600f060f90024
            b7e645f0010243f00103254462603046bd6008346b6000f052f9204603b0
            bde8f08f142869d9542800f29880280b6e304100b2e600bf940400202809
            00202c0900202409002020090020a00800205a0a042a55d9142a00f2a780
            5b324fea420c07eb8c0cdcf80810dff8b88161457fd04a6822f003029342
            02d289688c45f7d1ca687b68e260a1609460cc60c7e645f0010742f00103
            2544676030464d610d61c5f80ce0c5f808e06b60aa50083400f006f95ee6
            4b68b2e609f1010919f0030f0cf1080c7ff4bdae2ce004f108036469a342
            08bf02303ff475ae3ae61c461a445168db6854f8085f41f0010151603046
            eb609d6000f0e3f83be65b3041004ce69a0938324fea420caae7bc42454b
            3ff40daf9c68626822f0030267e7d8f8008098457cd110f0030fa8f10803
            00f1ff30f4d17b6823ea04037b6064009c423ff6c9ae002c3ff4c6ae2342
            48467ff475ae6400234200f10400fad06ee6b0f5aa7f18d8e80b77304100
            17e64ff48051fae6d8f8043092104ff0010c0cfa02f21343c8f804300a46
            7de70123c9f804304c4600222be740f2545398421cd8a80c7c304100fae5
            1032b3e6542a23d81a0b6e324fea420c54e7bc68626822f0030215e7cbf3
            0b0000287ff4b8ae4244bb6842f001025a60fce6fc217e20dee501224ff0
            000ad3e604f10801304600f0f8fcdaf80010ede6b2f5aa7f04d8da0b7732
            4fea420c2de740f254518a4204d89a0c7c324fea420c24e74ff0fc0c7e22
            20e77b688be794040020830770b4c9b240d0541e002a3fd003788b4218bf
            431c05d11ce0ecb10278013c8a4217d013f0030f184603f10103f4d1032c
            14d884b103788b420bd00519431c02e002788a4205d0ab42184603f10103
            f7d1002070bc7047204670bc7047024641ea012646ea0646136810467340
            a3f1013525ea030313f0803f02f10402d9d1043c032c1046efd8d4e71446
            d0e71046e0e700bf704700bf704700bfc26c70b505460c4652b152f82430
            8bb1196842f82410002218461a61da6070bd2122042100f0fcfbe8640246
            0028ecd1002070bd012101fa04f6721d2846920000f0eefb03460028f2d0
            44608660e2e731b1c36c4a6853f82200086043f82210704700bff0b50c46
            05460e6983b001f1140e0027def80010013788b2090c02fb003302fb01f1
            98b201eb134300eb0341be424ef8041b4fea1343ebdc3bb1a268964207da
            04eb8602013653612661204603b0f0bd6168284601310193fff7a0ff0746
            226904f10c01023292000c30fdf71df9ea6c6168019b52f82100206042f8
            21403c46dee700bf030c1b04b3b90004102310f07f4f04bf0002083310f0
            704f04bf0001043310f0404f04bf80000233002807db420003d420207047
            0023e8e7581c704718467047036813f0070207d0d90720d49a0720d49b08
            03600220704799b209b91b0c102213f0ff0f04bf1b0a0832190704bf1b09
            0432990704bf9b080232d90704d45b0801d1202070470132036010467047
            002070475b0803600120704700bf10b50c460121fff739ff012244610261
            10bd00bf2de9f04f0e69156985b0ae420c469146c0f292802b4635461e46
            a36805eb060861689845c8bf0131fff71eff00f1140a0aeb880bda450190
            05d25346002143f8041b9b45fbd809f1140909eb860304f11402994502eb
            850c59d2cdf808b0cdf80c809b46904659f8047b1ffa87febef1000f1fd0
            47465646002100e00646304657f8045b3468abb2a2b20efb03222d0c240c
            0efb0544531804eb13419ab242ea0142bc454fea114140f8042be6d87160
            59f8047c3f0c22d0daf80030002255461e464046964600e025462c460288
            360c07fb026699b206eb0e0241ea024344f8043b50f8041b6e68090cb3b2
            07fb0131844501eb12434fea134ee5d86b60cb450af1040aafd8ddf808b0
            ddf80c80b8f1000f0bdd5bf8043cabf1040b1bb105e05bf8043d13b9b8f1
            0108f9d10198c0f8108005b0bde8f08f144689466de700bf12f003032de9
            f041144607460e462dd1a4101cd0bd6c95b3e3074ff0000806d4641014d0
            2868a8b10546e307f8d5384631462a46fff744ffb6b17268fb6c641053f8
            2210316043f822600646ead13046bde8f08129462a463846fff731ff2860
            c0f800800546e0e70646d9e70b4a013b52f823200023fff789fe0646c8e7
            01213846fff751fe40f2712101220023416102610546b8640360bee700bf
            206a00002de9f0470f694fea62198b684f447d1c9d420e46144680464968
            04dd5b009d4201f10101fadc4046fff72efeb9f1000f00f1140109dd0023
            9e460a4601334b4542f804ebfad101eb8301326906f1140303eb820e14f0
            1f0222d0c2f120094ff0000a1c688c4694404aea040441f8044b53f8044b
            9e4524fa09faf2d8ccf804a0baf1000f00d0bd1cd8f84c307268013d53f8
            22100561316043f82260bde8f087043953f8042b9e4541f8042ff9d8ebe7
            02690b69d21a13d19b0014301431194410b4034401e098420cd253f8044d
            51f8042d9442f7d009d301205df8044b70471046704700205df8044b7047
            4ff0ff305df8044b704700bf2de9f0470c460546114620469146fff7d3ff
            061e5dd056db4ff0000a28466168fff7b6fd09f1140380461e462769d9f8
            102004f1140e7546c0f80ca000f114040eeb870e03eb820c4ff0000a55f8
            042b56f8041b90b200eb0a0388b2090c1b1ac1eb124202eb23429bb243ea
            0243b44544f8043b4fea224aa946e7d8ae45264615d959f8040b83b25344
            000c00eb23419bb243ea0143ce4544f8043b4fea214aefd8ed43754425f0
            030404343444043c23b954f8043d013f002bfad04046c8f81070bde8f087
            23464ff0010a4c469946a4e728463146fff75bfd012346610361bde8f087
            f0b5012183b01c46c3f30a551646fff74dfdc4f3130407460db144f48014
            019406b302a840f8086dfff7d4fd002830d19de80c007a61002b14bf0224
            0124bb613c61d5b9089a07eb8403a0f2324010601869fff79ffd099bc0eb
            44101860384603b0f0bd01a8fff7b5fd019b0122144620303a617b61002d
            e4d0a5f23343089a03441360099bc0f135001860384603b0f0bd019bc0f1
            2001009a03fa01f10a43c34001937a61c6e710b431f0004408d0114ba1f5
            80129a4208d804205df8044b704718b902205df8044b704701f1ff41094b
            01f5e0019942efd9b4f5801f01d20320ebe7054b9c4201d00020e6e7b0fa
            80f04009e2e700bfffffdf7f0000f07f38b5074c0023054608462360fbf7
            d6ff431c00d038bd2368002bfbd02b6038bddc0a00202de9f04f936883b0
            9146d2f80080002b72d04ff0000b0d465c4607468b680868002c45d09c42
            1e469a4648d3ab8913f4906f2dd06e69296906eb4606c1eb000a06ebd676
            601c76105044864232463cbf064632465b0535d511463846fff7c0f90028
            39d0524629690190fcf713feaa89019b22f4906242f08002aa81caeb0602
            03eb0a006e61a24626462b612860aa605246594600f0def9d9f80820ab68
            28689b1b5044141bab602860c9f808401cb3d8f800b0d8f8044008f10808
            b0e72646a246e5e7384600f029fa03460028d5d13846296900f0e6f80c23
            3b60ab89002243f040034ff0ff30ab81c9f80820c9f8042003b0bde8f08f
            0020c9f8040003b0bde8f08f2de9f047254c064625688846d5f848419246
            9946c4b360681f2817dc411c76b104eb8003c3f888a0d4f8885101228240
            1543022ec4f88851c3f808911ed0831c6160002044f82380bde8f087144b
            03b34ff4c870aff300800446d0b1d5f84831002784e888003846c5f84841
            0121c4f88871c4f88c71002ee1d0d1e7d4f88c311a43c4f88c21dae705f5
            a674c5f84841c1e74ff0ff30bde8f08700bfd46800000000000010b502fb
            01f1fff717f9044668b150f8042c22f00302043a242a18d8132a06d80346
            00221a605a609a60204610bd00231b2a036043600fd9242a8360c36005bf
            0361436100f1100300f11803e9e70021fcf7c2fd204610bd00f10803e1e7
            00bff8b50c46224f0646fff7b6fbbb685d6825f00305291b01f6ef7121f4
            7f6121f00f01a1f58054b4f5805f07db30460021fff7d0febb682b449842
            04d03046fff79dfb0020f8bd30466142fff7c3fe01300dd0104bba681968
            2d1b45f001053046091b55601960fff789fb0120f8bd30460021fff7affe
            ba68831a0f2bdedd064c0449246843f00103001b53600860d5e794040020
            2c090020a008002000294ed02de9f0410c468046fff766fb54f8047c6249
            a4f1080527f00102ab188e6858689e4220f003005ad0fe0758600bd454f8
            087c01f1080eed1bac683a44744567d0ef68e760bc601c186468e4070cd4
            544f9c680244bc427cd0d86842f00103e06084606b60aa5003e042f00103
            6b60aa50b2f5007f14d2d20801ebc20301244868921004fa02f29c681043
            ac60eb6048609d60e5604046bde8f041fff71fbb7047530a042b47d89309
            03f13804600001eb800083683949834243d0596821f00301914202d99b68
            9842f7d1da68ea60ab6040469560dd60bde8f041fff7ffbaff07024407d4
            54f8084c2d1beb68a8682244c36098602b4b42f001001b6868609a428d60
            c7d3284b40461968fff729ffc1e719184968c90709d4d96802449b6842f0
            0100d9608b606860aa50b3e742f001036b60aa50aee7142b14d803f15b04
            6000b5e74a68a4100120a04002434a601a46bce742f001034d610d61ec60
            ac606b60aa5097e7542b04d8130b03f16e0460009de7b3f5aa7f04d8d30b
            03f17704600095e740f25450834204d8930c03f17c0460008ce7fc207e24
            89e700bf940400209c0400209c080020280900208842f0b50dd98b189842
            0ad28118002a54d09a1a13f8014d934201f8014df9d1f0bd0f2a48d940ea
            01039b0747d1154600f1100401f1100353f8106c103d44f8106c53f80c6c
            0f2d44f80c6c53f8086c04f1100444f8186c53f8046c03f1100344f8146c
            e8d8a2f1100323f00f0302f00f0e1033bef1030f1944034421d90e467446
            1d1f56f8047b043c032c45f8047ff8d8aef1040424f00304043423442144
            02f0030252b1013b0a4411f8014b914203f8014ff9d1f0bd0346f3e7f0bd
            0346f1e77246eee700bf2de9f04f174683b00d46002900f0e280814607f1
            0b04fff725fa55f8043c162c23f00306a5f108084bd810221446a7424cd8
            964251dadff8a4b308eb0601dbf80800884200f0d380486820f0010e8e44
            def804e01ef0010f54d120f003003044904280f2bd80db0700f1908055f8
            083cc3eb080adaf8043023f0030300eb030e964549db5746cb688968321f
            cb60996057f8081fdaf80c30242acb60996000f23381132a40f2fa802b68
            1b2acaf808306b68caf80c3000f23b8108350af11003ede024f00704002c
            2246b0da0c230020c9f8003003b0bde8f08f2f46321b0f2a03f0010340d8
            3343c8f804304644736843f0010373604846fff7b6f9384603b0bde8f08f
            d90741d455f8083cc3eb080adaf8043023f003033344934236db5746daf8
            0c1057f8080f321f242ac160886000f2f580132a40f2f08029681b2acaf8
            08106968caf80c1000f2078108350af1100229681e4611606968d0465160
            ab689360daf80430b9e708eb0401234342f00100c8f804300a4448605368
            083143f0010353604846fff7fffdb4e739464846fef798fe07460028add0
            55f8043ca0f1080123f001024244914200f0a680321f242a00f29380132a
            65d803462a46116819605168596092689a6029464846fff7dbfd90e71146
            03b0bde8f04ffef772beca6889682f46ca600646916076e7416804f11000
            21f00301314481425adadb07c4d455f8083cc3eb080adaf8043023f00303
            01eb030c60453ff77eaf5746daf80c3057f8081f321f242acb60996000f2
            b680132a40f2a7802b681b2acaf808306b68caf80c3000f2b38008350af1
            10032a681a606a685a60aa689a60c4eb0c030aeb040243f00103cbf80820
            5360daf80430484603f001031c43caf80440fff7f3f838463be72b681b2a
            03606b68436028d800f1080305f1080290e73b462a6876461a606a68d046
            5a60aa689a60daf8043013e70b1b08eb040243f00103cbf80820536055f8
            043c484603f001031c4345f8044cfff7c8f8284610e72946fff72bfe72e7
            ab68242a8360eb68c3602bd000f1100305f1100261e750f8042c2f4622f0
            03021644e9e6294638467646d046fff712fedaf80430e0e63a4619e72946
            38461e46d046fff707fedaf80430d5e6ab68242acaf81030eb68caf81430
            18d010350af11803aae72a6900f118030261696905f11802416131e7a968
            242acaf81010e968caf814100fd010350af11802efe62a690af12003caf8
            18206a691835caf81c208be73b4662e729690af12002caf8181069691835
            caf81c10d9e629463846cdf804c0fff7c7fdddf804c055e7ab68242acaf8
            1030eb68caf8143003d010350af1180343e72a690af12003caf818206a69
            1835caf81c2039e7940400204ff0ff3c06e000bf4ff0010c02e000bf4ff0
            010c4df804cd4fea410c7fea6c5c4fea430c18bf7fea6c5c1bd001b050ea
            410c0cbf52ea430c91ea030f02bf90ea020f0020704710f1000f91ea030f
            58bf994208bf90422cbfd8176feae37040f0010070474fea410c7fea6c5c
            02d150ea013c07d14fea430c7fea6c5cd6d152ea033cd3d05df8040b7047
            00bf8446104662468c461946634600e000bf01b5fff7b7ff002848bf10f1
            000f01bd4df808edfff7f4ff0cbf012000205df808fb00bf4df808edfff7
            eaff34bf012000205df808fb00bf4df808edfff7e0ff94bf012000205df8
            08fb00bf4df808edfff7ceff94bf012000205df808fb00bf4df808edfff7
            c4ff34bf012000205df808fb00bf53b94ab9002908bf00281cbf4ff0ff31
            4ff0ff3000f03cb882b0ec462de9005000f01ef8ddf804e002b00cbc7047
            00bf2de9f041069c904606460f461d4600f029f808fb01fca8fb002300fb
            05c5b21a2b4467eb03038646c4e90023bde8f0812de9f843089e17468046
            89461d4600f067f900fb05f3a0fb074507fb0137b8eb04043d4469eb0505
            c6e90045bde8f883704700bf00292de9f043c0f2a8800026002bc0f29e80
            81468e4690469c46174604460d46002b3dd18a4259d9b2fa82f33bb1c3f1
            20029d4020fa02f29f4015439c40390cb5fbf1f01ffa87fe01fb10550efb
            00f3220c42ea0545ab4209d9ed1900f1ff3280f00b81ab4240f208810238
            3d44ed1ab5fbf1f301fb13550efb03fea4b244ea0545ae4508d9ed1903f1
            ff3280f0f780ae4540f2f480023b43ea0043002203e08b420fd900221346
            341c18bf012460424ff0000565eb45015840514000196941bde8f083b3fa
            83f2002a40f089808b4202d3804500f2e2800123e5e712b90123b3fbf2f7
            b7fa87f8b8f1000f3bd1ed1b4fea174c1ffa87fe0122b5fbfcf00cfb1055
            0efb00f3210c41ea0545ab4207d9ed1900f1ff3102d2ab4200f2c3800846
            ed1ab5fbfcf30cfb13550efb03fea4b244ea0545ae4507d9ed1903f1ff31
            02d2ae4500f2ad800b4643ea0043ace752426fea060663eb43035be74042
            61eb41014ff0ff3652e707fa08f7c8f1200225fa02f34fea174cb3fbfcf1
            1ffa87fe0cfb113324fa02f205fa08f50efb01f92a43100c40ea03439945
            04fa08f407d9db1901f1ff3078d2994576d902393b44c9eb0303b3fbfcf0
            0cfb10330efb00f592b242ea03439d4207d9db1900f1ff325fd29d425dd9
            02383b445d1b40ea01428ce7c2f1200328fa03f10cfa02fc41ea0c0c4fea
            1c402efa03f1b1fbf0f51ffa8cf700fb151129fa03f30efa02fe07fb05f9
            43ea0e0e4fea1e4343ea0141894508fa02f808d911eb0c0105f1ff3332d2
            894530d9023d6144c9eb0101b1fbf0f300fb131107fb03f71ffa8efe4eea
            014e774508d91eeb0c0e03f1ff3117d2774515d9023be64443ea0543a3fb
            0889c7eb0e0ece4509d305d0002216e71046f7e613460ae794404445f6d2
            013bf4e70b46e9e71046a1e71d46cee7014688e7134603e7023b51e70238
            3d443ae700bf2de9f043002b44d18a42154604464fd9b2fa82f70e464fb1
            c7f12003b94020fa03f602fa07f50e4300fa07f42f0cb6fbf7f01ffa85fe
            07fb10620efb00f1260c46ea0243994209d95b1900f1ff3280f0ee809942
            40f2eb8002382b44591ab1fbf7f307fb13110efb03fea4b244ea01418e45
            08d9491903f1ff3280f0da808e4540f2d780023b43ea004000263146bde8
            f0838b4247d8b3fa83f6002e48d18b4202d3824200f2cf8001203146bde8
            f08312b90125b5fbf2f5b5fa85fcbcf1000f78d1491b2f0c1ffa85fe0126
            b1fbf7f007fb10110efb00f2230c43ea01418a4207d9491900f1ff3302d2
            8a4200f2bc801846891ab1fbf7f307fb13110efb03fea4b244ea01429645
            08d9521903f1ff3180f09180964540f28e80023b43ea00403146bde8f083
            002630463146bde8f083c6f1200422fa04f5b3402b4321fa04f74fea1348
            b7fbf8fc1ffa83f908fb1c7720fa04fe01fa06f509fb0cf44eea05054fea
            154e4eea0747bc4202fa06f204d9ff180cf1ff3168d38c463f1bb7fbf8f4
            08fb147709fb04f9adb245ea0741894504d9c91804f1ff355dd32c4644ea
            0c44a4fb0223c9eb0101994249d345d0204600266be7ccf1200405fa0cf5
            21fa04f32a0cb3fbf2f61ffa85fe02fb163820fa04f701fa0cf10efb06f9
            0f433c0c44ea0843994500fa0cf407d95b1906f1ff3138d2994536d9023e
            2b44c9eb0303b3fbf2f002fb10330efb00f1bfb247ea0343994207d95b19
            00f1ff3721d299421fd902382b441746591a40ea06464ee7104614e71346
            27e70b4670e7b0409042b6d2601e002622e7304620e7bc4294d9acf1020c
            1f4491e789459fd9023c19449de73846dfe70e46c8e70238294441e700bf
            32333435363738393a3b3c3d3e3f404142434445464748494a4b4c4d4e4f
            50510030014004300140083001400c300140103001401430014018300140
            1c3001402030014024300140283001402c30014030300140343001403830
            01403c3001404030014044300140483001404c3001405030014054300140
            583001405c3001406030014064300140683001406c300140703001407430
            0140783001407c3001400001000102020303253032582000000025642000
            0a0d0a0d2a2a2a2a2a2a204d592054455354202a2a2a2a2a2a2a2a2a0a0d
            00004465766963652049443a200053746174757320726567697374657220
            696e697469616c3a0a0d0000537461747573207265676973746572206166
            746572205752454e3a0a0d0000004461746120726561642066726f6d2046
            52414d3a0a0d0000446174612066726f6d205350495f313a0a0d0000436f
            756e7465722056616c75653a2025640a0d0053616d706c6520467265713a
            20252e356620487a0a0d0000430000003000002030303030303030303030
            30303030303020202020202020202020202020202020494e4600696e6600
            4e414e006e616e0030313233343536373839414243444546000000003031
            323334353637383961626364656600000000286e756c6c29000030000000
            496e66696e697479000000004e614e00504f5349580000002e0000000000
            00000000f03f000000000000244000000000000059400000000000408f40
            000000000088c34000000000006af8400000000080842e4100000000d012
            63410000000084d797410000000065cdcd41000000205fa00242000000e8
            76483742000000a2941a6d42000040e59c30a2420000901ec4bcd6420000
            3426f56b0c430080e03779c3414300a0d8855734764300c84e676dc1ab43
            003d9160e458e143408cb5781daf154450efe2d6e41a4b4492d54d06cff0
            8044f64ae1c7022db544b49dd9794378ea4405000000190000007d000000
            000000000080e03779c34143176e05b5b5b89346f5f93fe9034f384d321d
            30f94877825a3cbf737fdd4f1575f8b500bff8bc08bc9e467047f8b500bf
            f8bc08bc9e467047593b0000e5050000c105000000000000406200600100
            0000000000000000000000000000002d3101404b4c00002d3101002d3101
            002d3101002d3101002d3101000000001c03002084030020ec0300200000
            000000000000000000000000000000000000000000000000000000000000
            00000000d068000000000000000000000000000000000000000000000000
            000000000000000000000000000000000000000000000000000000000000
            000000000000000000000000000000000000000000000000000000000000
            000000000000000000000000000000000000000000000000000000000000
            01000000000000000e33cdab34126de6ecde05000b000000000000000000
            000000000000000000000000000000000000000000000000000000000000
            000000000000000000000000000000000000000000000000000000000000
            000000000000000000000000000000000000000000000000000000000000
            000000000000000000000000000000000000000000000000000000000000
            000000000000000000000000000000000000000000000000000000000000
            000000000000000000000000000000000000000000000000000000000000
            000000000000000000000000000000000000000000000000000000000000
            000000000000000000000000000000000000000000000000000000000000
            000000000000000000000000000000000000000000000000000000000000
            000000000000000000000000000000000000000000000000000000000000
            000000000000000000000000000000000000000000000000000000000000
            000000000000000000000000000000000000000000000000000000000000
            000000000000000000000000000000000000000000000000000000000000
            000000000000000000000000000000000000000000000000000000000000
            000000000000000000000000000000000000000000000000000000000000
            000000000000000000000000000000000000000000000000000000000000
            000000000000000000000000000000000000000000000000000000000000
            000000000000000000000000000000000000000000000000000000000000
            000000000000000000000000000000000000000000000000000000000000
            000000000000000000000000000000000000000000000000000000000000
            000000000000000000000000000000000000000000000000000000000000
            000000000000000000000000000000000000000000000000000000000000
            000000000000000000000000000000000000000000000000000000000000
            000000000000000000000000000000000000000000000000000000000000
            000000000000000000000000000000000000000000000000000000000000
            000000000000000000000000000000000000000000000000000000000000
            000000000000000000000000000000000000000000000000000000000000
            000000000000000000000000000000000000000000000000000000000000
            000000000000000000000000000000000000000000000000000030000020
            546900001869000018690000186900001869000018690000186900001869
            00001869000018690000ffffffffffffffffffffffffffff000000000000
            0000000094040020940400209c0400209c040020a4040020a4040020ac04
            0020ac040020b4040020b4040020bc040020bc040020c4040020c4040020
            cc040020cc040020d4040020d4040020dc040020dc040020e4040020e404
            0020ec040020ec040020f4040020f4040020fc040020fc04002004050020
            040500200c0500200c05002014050020140500201c0500201c0500202405
            0020240500202c0500202c05002034050020340500203c0500203c050020
            44050020440500204c0500204c05002054050020540500205c0500205c05
            002064050020640500206c0500206c05002074050020740500207c050020
            7c05002084050020840500208c0500208c05002094050020940500209c05
            00209c050020a4050020a4050020ac050020ac050020b4050020b4050020
            bc050020bc050020c4050020c4050020cc050020cc050020d4050020d405
            0020dc050020dc050020e4050020e4050020ec050020ec050020f4050020
            f4050020fc050020fc05002004060020040600200c0600200c0600201406
            0020140600201c0600201c06002024060020240600202c0600202c060020
            34060020340600203c0600203c06002044060020440600204c0600204c06
            002054060020540600205c0600205c06002064060020640600206c060020
            6c06002074060020740600207c0600207c06002084060020840600208c06
            00208c06002094060020940600209c0600209c060020a4060020a4060020
            ac060020ac060020b4060020b4060020bc060020bc060020c4060020c406
            0020cc060020cc060020d4060020d4060020dc060020dc060020e4060020
            e4060020ec060020ec060020f4060020f4060020fc060020fc0600200407
            0020040700200c0700200c07002014070020140700201c0700201c070020
            24070020240700202c0700202c07002034070020340700203c0700203c07
            002044070020440700204c0700204c07002054070020540700205c070020
            5c07002064070020640700206c0700206c07002074070020740700207c07
            00207c07002084070020840700208c0700208c0700209407002094070020
            9c0700209c070020a4070020a4070020ac070020ac070020b4070020b407
            0020bc070020bc070020c4070020c4070020cc070020cc070020d4070020
            d4070020dc070020dc070020e4070020e4070020ec070020ec070020f407
            0020f4070020fc070020fc07002004080020040800200c0800200c080020
            14080020140800201c0800201c08002024080020240800202c0800202c08
            002034080020340800203c0800203c08002044080020440800204c080020
            4c08002054080020540800205c0800205c08002064080020640800206c08
            00206c08002074080020740800207c0800207c0800208408002084080020
            8c0800208c08002000000200ffffffff000000000000000000000000
            <crc>
                1860
            </crc>
        </region>
    </nvm>
</Actel_Data_File>
